# Zeit [s]	Impulsantwort
0.000000000000000000e+00 -1.260044741100943710e+01
1.000000000000000021e-02 -9.456131633510025836e+01
2.000000000000000042e-02 -1.781880856608642034e+02
2.999999999999999889e-02 -2.394444913695300556e+02
4.000000000000000083e-02 -2.742300139285651994e+02
5.000000000000000278e-02 -2.809733987000439583e+02
5.999999999999999778e-02 -2.603710565971852589e+02
7.000000000000000666e-02 -2.156810706279545116e+02
8.000000000000000167e-02 -1.523495117942356671e+02
8.999999999999999667e-02 -7.726435184375382903e+01
1.000000000000000056e-01 1.649158997007389882e+00
1.100000000000000006e-01 7.654414553644211594e+01
1.199999999999999956e-01 1.402378356086806832e+02
1.300000000000000044e-01 1.873455686292391533e+02
1.400000000000000133e-01 2.143191650902109586e+02
1.499999999999999944e-01 2.193645202325656669e+02
1.600000000000000033e-01 2.030536804767733656e+02
1.700000000000000122e-01 1.678684997058035151e+02
1.799999999999999933e-01 1.181174412794488546e+02
1.900000000000000022e-01 5.926540667758108327e+01
2.000000000000000111e-01 -2.739378356347256460e+00
2.099999999999999922e-01 -6.161335311197477438e+01
2.200000000000000011e-01 -1.116249867056545924e+02
2.300000000000000100e-01 -1.484310652894535565e+02
2.399999999999999911e-01 -1.690646841265225078e+02
2.500000000000000000e-01 -1.721289420767993192e+02
2.600000000000000089e-01 -1.581779887842987478e+02
2.700000000000000178e-01 -1.296528224180694338e+02
2.800000000000000266e-01 -9.018166221597959975e+01
2.899999999999999800e-01 -4.387279870969974382e+01
2.999999999999999889e-01 4.419444633550940971e+00
3.099999999999999978e-01 4.980303190666498381e+01
3.200000000000000067e-01 8.801040659383414777e+01
3.300000000000000155e-01 1.158672595353898203e+02
3.400000000000000244e-01 1.312675072155662406e+02
3.499999999999999778e-01 1.333059209832608758e+02
3.599999999999999867e-01 1.224068656516365223e+02
3.699999999999999956e-01 1.004892439362650265e+02
3.800000000000000044e-01 7.023751705047087057e+01
3.900000000000000133e-01 3.444734733797925941e+01
4.000000000000000222e-01 -3.077912165519697929e+00
4.099999999999999756e-01 -3.871170561544595756e+01
4.199999999999999845e-01 -6.899848012439292688e+01
4.299999999999999933e-01 -9.115917971974099032e+01
4.400000000000000022e-01 -1.034941244674399599e+02
4.500000000000000111e-01 -1.051227871905207678e+02
4.600000000000000200e-01 -9.659419561732620707e+01
4.699999999999999734e-01 -7.911739684963572472e+01
4.799999999999999822e-01 -5.477210182873550082e+01
4.899999999999999911e-01 -2.626756144774681800e+01
5.000000000000000000e-01 3.426053152372181110e+00
5.100000000000000089e-01 3.139566394459231802e+01
5.200000000000000178e-01 5.508223347345642651e+01
5.300000000000000266e-01 7.208490390126443970e+01
5.400000000000000355e-01 8.126667986378114961e+01
5.500000000000000444e-01 8.211724774372268598e+01
5.600000000000000533e-01 7.495940567919670627e+01
5.699999999999999512e-01 6.107056047050353698e+01
5.799999999999999600e-01 4.190714189982216453e+01
5.899999999999999689e-01 1.963896210512898932e+01
5.999999999999999778e-01 -3.383987073752767749e+00
6.099999999999999867e-01 -2.518103714464086096e+01
6.199999999999999956e-01 -4.367574178136014496e+01
6.300000000000000044e-01 -5.694974982666213492e+01
6.400000000000000133e-01 -6.409558792689530549e+01
6.500000000000000222e-01 -6.464212953282769547e+01
6.600000000000000311e-01 -5.877239819714814928e+01
6.700000000000000400e-01 -4.740156394325962452e+01
6.800000000000000488e-01 -3.196769951135631160e+01
6.899999999999999467e-01 -1.429748202462567086e+01
6.999999999999999556e-01 3.899590454881838752e+00
7.099999999999999645e-01 2.090959191407761608e+01
7.199999999999999734e-01 3.490419974021028793e+01
7.299999999999999822e-01 4.477383593391952843e+01
7.399999999999999911e-01 4.988436958336802007e+01
7.500000000000000000e-01 4.989520504620656993e+01
7.600000000000000089e-01 4.512021524384947924e+01
7.700000000000000178e-01 3.643569805556619201e+01
7.800000000000000266e-01 2.460552184032758305e+01
7.900000000000000355e-01 1.097287535204087838e+01
8.000000000000000444e-01 -2.984911865914612772e+00
8.100000000000000533e-01 -1.604507757095673881e+01
8.199999999999999512e-01 -2.695026685882398354e+01
8.299999999999999600e-01 -3.476647381970502693e+01
8.399999999999999689e-01 -3.896652114396356836e+01
8.499999999999999778e-01 -3.918413209576790734e+01
8.599999999999999867e-01 -3.585398944577495683e+01
8.699999999999999956e-01 -2.929036852051841322e+01
8.800000000000000044e-01 -1.977350781988141293e+01
8.900000000000000133e-01 -8.522670365879665866e+00
9.000000000000000222e-01 3.114150957835666755e+00
9.100000000000000311e-01 1.381843852451333809e+01
9.200000000000000400e-01 2.262306083232693510e+01
9.300000000000000488e-01 2.867705100342205427e+01
9.399999999999999467e-01 3.142439260153226144e+01
9.499999999999999556e-01 3.093418401054962175e+01
9.599999999999999645e-01 2.743986399133508769e+01
9.699999999999999734e-01 2.161519543781457742e+01
9.799999999999999822e-01 1.405550973844903240e+01
9.899999999999999911e-01 5.589034046530455768e+00
1.000000000000000000e+00 -2.702575399384812727e+00
1.010000000000000009e+00 -1.055145015464788827e+01
1.020000000000000018e+00 -1.725102424401508117e+01
1.030000000000000027e+00 -2.199004416646017290e+01
1.040000000000000036e+00 -2.441593839413106437e+01
1.050000000000000044e+00 -2.446620985248343061e+01
1.060000000000000053e+00 -2.203877147189176711e+01
1.070000000000000062e+00 -1.739546677500894134e+01
1.080000000000000071e+00 -1.123491944370248774e+01
1.090000000000000080e+00 -4.258777160449121801e+00
1.100000000000000089e+00 2.661530618725818087e+00
1.110000000000000098e+00 8.998503624105410381e+00
1.120000000000000107e+00 1.434052316598737065e+01
1.129999999999999893e+00 1.803064497922427734e+01
1.139999999999999902e+00 1.974602237558470819e+01
1.149999999999999911e+00 1.948910929344260978e+01
1.159999999999999920e+00 1.720446475516879303e+01
1.169999999999999929e+00 1.319735722427684976e+01
1.179999999999999938e+00 8.200327971638589730e+00
1.189999999999999947e+00 2.777317836800012874e+00
1.199999999999999956e+00 -2.688847161500683480e+00
1.209999999999999964e+00 -7.594522813991149590e+00
1.219999999999999973e+00 -1.150941880418770324e+01
1.229999999999999982e+00 -1.420600018530953967e+01
1.239999999999999991e+00 -1.542647541152690138e+01
1.250000000000000000e+00 -1.502131519803380399e+01
1.260000000000000009e+00 -1.326345712627957418e+01
1.270000000000000018e+00 -1.035832877503206539e+01
1.280000000000000027e+00 -6.579959367089965205e+00
1.290000000000000036e+00 -2.305953557386983821e+00
1.300000000000000044e+00 2.139662709357981196e+00
1.310000000000000053e+00 6.414242118579597474e+00
1.320000000000000062e+00 9.933670984505495127e+00
1.330000000000000071e+00 1.228754205554795575e+01
1.340000000000000080e+00 1.321156786584288412e+01
1.350000000000000089e+00 1.263060645181174202e+01
1.360000000000000098e+00 1.066800787159566077e+01
1.370000000000000107e+00 7.600294396306357392e+00
1.379999999999999893e+00 4.038126432047954850e+00
1.389999999999999902e+00 3.219528688121996440e-01
1.399999999999999911e+00 -3.079824731364188217e+00
1.409999999999999920e+00 -5.921794952623414154e+00
1.419999999999999929e+00 -8.038168875880941755e+00
1.429999999999999938e+00 -9.378318422190522696e+00
1.439999999999999947e+00 -9.797597962621605205e+00
1.449999999999999956e+00 -9.195069377324269766e+00
1.459999999999999964e+00 -7.707975348367366308e+00
1.469999999999999973e+00 -5.656537281603808864e+00
1.479999999999999982e+00 -3.209309951592009380e+00
1.489999999999999991e+00 -4.814210891800827508e-01
1.500000000000000000e+00 2.205900295816118906e+00
1.510000000000000009e+00 4.582150681425595451e+00
1.520000000000000018e+00 6.544869654601217945e+00
1.530000000000000027e+00 7.804624651787399614e+00
1.540000000000000036e+00 8.301000604282267048e+00
1.550000000000000044e+00 8.049181412379718736e+00
1.560000000000000053e+00 6.871598821620830577e+00
1.570000000000000062e+00 4.921101141904602905e+00
1.580000000000000071e+00 2.429019349788243076e+00
1.590000000000000080e+00 -3.535274611303886871e-01
1.600000000000000089e+00 -2.911805955464173312e+00
1.610000000000000098e+00 -4.930161808866591500e+00
1.620000000000000107e+00 -6.235865271892241601e+00
1.629999999999999893e+00 -6.638123656391047511e+00
1.639999999999999902e+00 -6.357642448738206831e+00
1.649999999999999911e+00 -5.554148953151460510e+00
1.659999999999999920e+00 -4.169003627161140813e+00
1.669999999999999929e+00 -2.521367035867306150e+00
1.679999999999999938e+00 -8.206883928703658793e-01
1.689999999999999947e+00 7.817491872553183896e-01
1.699999999999999956e+00 2.273353173797105775e+00
1.709999999999999964e+00 3.562678080431660899e+00
1.719999999999999973e+00 4.373906369482678969e+00
1.729999999999999982e+00 4.824695551586151154e+00
1.739999999999999991e+00 4.894599461892519265e+00
1.750000000000000000e+00 4.431284369870438056e+00
1.760000000000000009e+00 3.666582128805302432e+00
1.770000000000000018e+00 2.539970550493642953e+00
1.780000000000000027e+00 1.169503702588021499e+00
1.790000000000000036e+00 -4.161924434482688895e-01
1.800000000000000044e+00 -1.972691610265331130e+00
1.810000000000000053e+00 -3.198537318213765523e+00
1.820000000000000062e+00 -3.947064350377145203e+00
1.830000000000000071e+00 -4.207058797053990773e+00
1.840000000000000080e+00 -4.159341431099024433e+00
1.850000000000000089e+00 -3.629041930007049555e+00
1.860000000000000098e+00 -2.722315270731171744e+00
1.870000000000000107e+00 -1.644020329554001680e+00
1.879999999999999893e+00 -3.576346756062718235e-01
1.889999999999999902e+00 9.805618125042979694e-01
1.899999999999999911e+00 1.995247444187116193e+00
1.909999999999999920e+00 2.492787757610613220e+00
1.919999999999999929e+00 2.796162125622675632e+00
1.929999999999999938e+00 2.935293897677571984e+00
1.939999999999999947e+00 2.913306281939777698e+00
1.949999999999999956e+00 2.552930359799819637e+00
1.959999999999999964e+00 2.020585000391972308e+00
1.969999999999999973e+00 1.321773463513019831e+00
1.979999999999999982e+00 1.847550712248625659e-01
1.989999999999999991e+00 -1.025899364368511701e+00
2.000000000000000000e+00 -1.984733208529424919e+00
2.009999999999999787e+00 -2.572882601724447493e+00
2.020000000000000018e+00 -2.914866338672370105e+00
2.029999999999999805e+00 -2.824618171707369285e+00
2.040000000000000036e+00 -2.256800748290873404e+00
2.049999999999999822e+00 -1.565868618870632112e+00
2.060000000000000053e+00 -8.790506301233032005e-01
2.069999999999999840e+00 -1.494648890135497066e-01
2.080000000000000071e+00 5.371527512073349664e-01
2.089999999999999858e+00 1.124640122162132494e+00
2.100000000000000089e+00 1.516655551060500873e+00
2.109999999999999876e+00 1.713397043415706200e+00
2.120000000000000107e+00 1.791673117166382001e+00
2.129999999999999893e+00 1.660658512146204080e+00
2.140000000000000124e+00 1.304571295129718145e+00
2.149999999999999911e+00 9.840405827571392372e-01
2.160000000000000142e+00 6.716347195373265633e-01
2.169999999999999929e+00 2.076444947831070920e-01
2.180000000000000160e+00 -2.403193748869889568e-01
2.189999999999999947e+00 -5.254927713413214407e-01
2.200000000000000178e+00 -8.457201507646683325e-01
2.209999999999999964e+00 -1.308941719056506692e+00
2.220000000000000195e+00 -1.741503908343853047e+00
2.229999999999999982e+00 -1.812631541015079062e+00
2.240000000000000213e+00 -1.685412280591018996e+00
2.250000000000000000e+00 -1.300995972827052150e+00
2.259999999999999787e+00 -6.033777350634146330e-01
2.270000000000000018e+00 2.466397846630885571e-01
2.279999999999999805e+00 1.083063130987805156e+00
2.290000000000000036e+00 1.657836264028684337e+00
2.299999999999999822e+00 1.849670105888141070e+00
2.310000000000000053e+00 1.798838003230836868e+00
2.319999999999999840e+00 1.462589927024363856e+00
2.330000000000000071e+00 9.110776924568531054e-01
2.339999999999999858e+00 3.276473951934437689e-01
2.350000000000000089e+00 -1.178432536978037959e-01
2.359999999999999876e+00 -5.233389803071015756e-01
2.370000000000000107e+00 -7.536245134765167109e-01
2.379999999999999893e+00 -7.876134030428572075e-01
2.390000000000000124e+00 -7.659293251751839726e-01
2.399999999999999911e+00 -8.954125462024906668e-01
2.410000000000000142e+00 -1.160738490996803485e+00
2.419999999999999929e+00 -1.302473892414965695e+00
2.430000000000000160e+00 -1.183442126587731957e+00
2.439999999999999947e+00 -9.133484592397764779e-01
2.450000000000000178e+00 -4.109654374309390512e-01
2.459999999999999964e+00 3.612839840109574041e-01
2.470000000000000195e+00 9.866008065341672628e-01
2.479999999999999982e+00 1.347288882513276942e+00
2.490000000000000213e+00 1.603919334734180246e+00
2.500000000000000000e+00 1.688187378781259795e+00
2.509999999999999787e+00 1.615432200678797781e+00
2.520000000000000018e+00 1.249283784857019519e+00
2.529999999999999805e+00 6.562853170909370704e-01
2.540000000000000036e+00 -5.168093791135708326e-02
2.549999999999999822e+00 -5.738832637363435740e-01
2.560000000000000053e+00 -9.389646807694358444e-01
2.569999999999999840e+00 -1.141037935897802225e+00
2.580000000000000071e+00 -1.163980967228270380e+00
2.589999999999999858e+00 -1.107216516240224102e+00
2.600000000000000089e+00 -1.110125667838808949e+00
2.609999999999999876e+00 -9.056282664472419253e-01
2.620000000000000107e+00 -5.054740612507210296e-01
2.629999999999999893e+00 -1.319590494591108276e-01
2.640000000000000124e+00 1.432244402752271828e-01
2.649999999999999911e+00 4.582884650514913449e-01
2.660000000000000142e+00 7.732744959183655009e-01
2.669999999999999929e+00 9.233435394262303753e-01
2.680000000000000160e+00 1.262540345829886501e+00
2.689999999999999947e+00 1.620691694889498713e+00
2.700000000000000178e+00 1.746445433113072765e+00
2.709999999999999964e+00 1.582632617698427335e+00
2.720000000000000195e+00 9.450809606245331729e-01
2.729999999999999982e+00 6.717845319753740219e-02
2.740000000000000213e+00 -7.291287897223659442e-01
2.750000000000000000e+00 -1.457791695807249432e+00
2.759999999999999787e+00 -1.829351978251348543e+00
2.770000000000000018e+00 -1.846877510844334269e+00
2.779999999999999805e+00 -1.757645807479128131e+00
2.790000000000000036e+00 -1.490719261628886905e+00
2.799999999999999822e+00 -9.139999961694871278e-01
2.810000000000000053e+00 -3.234872068287063529e-01
2.819999999999999840e+00 2.732808785862390621e-01
2.830000000000000071e+00 7.218379442402687030e-01
2.839999999999999858e+00 1.026097989897057916e+00
2.850000000000000089e+00 1.279099033335072688e+00
2.859999999999999876e+00 1.270992288783095781e+00
2.870000000000000107e+00 1.085662141764563993e+00
2.879999999999999893e+00 8.903459489208525035e-01
2.890000000000000124e+00 6.031319139117663486e-01
2.899999999999999911e+00 4.677602336459413257e-01
2.910000000000000142e+00 3.751820274459850002e-01
2.919999999999999929e+00 1.753182923481646505e-01
2.930000000000000160e+00 -6.178196808825803937e-02
2.939999999999999947e+00 -4.381175007700081059e-01
2.950000000000000178e+00 -9.691821780849226853e-01
2.959999999999999964e+00 -1.425680577428034113e+00
2.970000000000000195e+00 -1.593918287479538565e+00
2.979999999999999982e+00 -1.628667662343370903e+00
2.990000000000000213e+00 -1.263853917486126521e+00
3.000000000000000000e+00 -5.378334263399559001e-01
3.009999999999999787e+00 2.000940444037926369e-01
3.020000000000000018e+00 7.758872781290890863e-01
3.029999999999999805e+00 1.190511544346795514e+00
3.040000000000000036e+00 1.384831100424072980e+00
3.049999999999999822e+00 1.370439359233498466e+00
3.060000000000000053e+00 1.142229063120037580e+00
3.069999999999999840e+00 9.124515310996172968e-01
3.080000000000000071e+00 7.082619196504009729e-01
3.089999999999999858e+00 3.161951348905889247e-01
3.100000000000000089e+00 -1.889500825104576398e-01
3.109999999999999876e+00 -5.108378976216704226e-01
3.120000000000000107e+00 -6.160317950841701640e-01
3.129999999999999893e+00 -6.115188732500942415e-01
3.140000000000000124e+00 -6.673058108897274021e-01
3.149999999999999911e+00 -8.792587462367906781e-01
3.160000000000000142e+00 -1.055398923533150235e+00
3.169999999999999929e+00 -1.189358344910031562e+00
3.180000000000000160e+00 -1.176000860962538086e+00
3.189999999999999947e+00 -8.061521210748314736e-01
3.200000000000000178e+00 -2.325252157683981302e-01
3.209999999999999964e+00 2.951750275958250347e-01
3.220000000000000195e+00 8.352290575606616807e-01
3.229999999999999982e+00 1.256304558474466759e+00
3.240000000000000213e+00 1.360950255241387019e+00
3.250000000000000000e+00 1.375466575060773744e+00
3.259999999999999787e+00 1.349730518440140248e+00
3.270000000000000018e+00 1.125109760600901510e+00
3.279999999999999805e+00 8.014359071461671924e-01
3.290000000000000036e+00 3.610191420366025694e-01
3.299999999999999822e+00 -1.281671241726006771e-01
3.310000000000000053e+00 -4.450272983249670689e-01
3.319999999999999840e+00 -6.380119860057181791e-01
3.330000000000000071e+00 -7.410519239918629264e-01
3.339999999999999858e+00 -8.860474940009304134e-01
3.350000000000000089e+00 -1.109961840918736842e+00
3.359999999999999876e+00 -1.194207111213803962e+00
3.370000000000000107e+00 -1.251374374084088803e+00
3.379999999999999893e+00 -1.249805390811129069e+00
3.390000000000000124e+00 -1.138551104030905314e+00
3.399999999999999911e+00 -8.420453912509124894e-01
3.410000000000000142e+00 -2.265973314958000806e-01
3.419999999999999929e+00 6.240626988791669882e-01
3.430000000000000160e+00 1.467863768695654159e+00
3.439999999999999947e+00 1.976123098737793793e+00
3.450000000000000178e+00 2.174278796541868175e+00
3.459999999999999964e+00 2.031919324797524240e+00
3.470000000000000195e+00 1.514758642980326364e+00
3.479999999999999982e+00 9.023740296652286164e-01
3.490000000000000213e+00 3.476777245224582646e-01
3.500000000000000000e+00 -1.247779764251084333e-01
3.509999999999999787e+00 -4.939371892734747971e-01
3.520000000000000018e+00 -9.836677197922070182e-01
3.529999999999999805e+00 -1.471430023098340811e+00
3.540000000000000036e+00 -1.785590409381494936e+00
3.549999999999999822e+00 -1.796864469591485491e+00
3.560000000000000053e+00 -1.503528309006811003e+00
3.569999999999999840e+00 -1.114043136065266504e+00
3.580000000000000071e+00 -7.620428078127796656e-01
3.589999999999999858e+00 -3.380691091247935987e-01
3.600000000000000089e+00 -2.163333473286010999e-02
3.609999999999999876e+00 2.263107401369433003e-01
3.620000000000000107e+00 6.559613162171188394e-01
3.629999999999999893e+00 1.182913040314151898e+00
3.640000000000000124e+00 1.633766627559889884e+00
3.649999999999999911e+00 1.973607472943717855e+00
3.660000000000000142e+00 2.020719169669461746e+00
3.669999999999999929e+00 1.609653594608997595e+00
3.680000000000000160e+00 1.013552056599643647e+00
3.689999999999999947e+00 2.429357512581404588e-01
3.700000000000000178e+00 -4.858353246614504628e-01
3.709999999999999964e+00 -1.141068482964185060e+00
3.720000000000000195e+00 -1.777556162456436217e+00
3.729999999999999982e+00 -2.011747833857199907e+00
3.740000000000000213e+00 -1.822542303305998646e+00
3.750000000000000000e+00 -1.442212045435195211e+00
3.759999999999999787e+00 -1.008421202663351446e+00
3.770000000000000018e+00 -5.878215108035018677e-01
3.779999999999999805e+00 -1.763040618451907071e-01
3.790000000000000036e+00 1.106341664749860565e-01
3.799999999999999822e+00 3.855175179075602809e-01
3.810000000000000053e+00 7.910101474911065411e-01
3.819999999999999840e+00 1.128120081330558522e+00
3.830000000000000071e+00 1.302760068233188573e+00
3.839999999999999858e+00 1.360607157639730946e+00
3.850000000000000089e+00 1.312863088665866318e+00
3.859999999999999876e+00 1.144010301390137929e+00
3.870000000000000107e+00 7.979134855484184552e-01
3.879999999999999893e+00 3.355550903879749303e-01
3.890000000000000124e+00 -2.125082339415396149e-01
3.899999999999999911e+00 -8.187746150887793561e-01
3.910000000000000142e+00 -1.292819508724163402e+00
3.919999999999999929e+00 -1.589195731747377049e+00
3.930000000000000160e+00 -1.661224041566901288e+00
3.939999999999999947e+00 -1.521170395594992897e+00
