Zeit [s]	Kraft [N]
0.000000000000000000e+00 -1.320782330128554349e+01
1.000000000000000021e-02 -9.440942755944001874e+01
2.000000000000000042e-02 -1.774200932130929402e+02
2.999999999999999889e-02 -2.383372357450250831e+02
4.000000000000000083e-02 -2.729007745303288175e+02
5.000000000000000278e-02 -2.793467742441902146e+02
5.999999999999999778e-02 -2.585087146084898109e+02
7.000000000000000666e-02 -2.137093615473296495e+02
8.000000000000000167e-02 -1.502627529943503362e+02
8.999999999999999667e-02 -7.551676206646158107e+01
1.000000000000000056e-01 2.706311561810793798e+00
1.100000000000000006e-01 7.697106260772454789e+01
1.199999999999999956e-01 1.402571543260616522e+02
1.300000000000000044e-01 1.868328878750870672e+02
1.400000000000000133e-01 2.131910006238177004e+02
1.499999999999999944e-01 2.176194647462810963e+02
1.600000000000000033e-01 2.006940222932409483e+02
1.700000000000000122e-01 1.652933090302075811e+02
1.799999999999999933e-01 1.155657392015885847e+02
1.900000000000000022e-01 5.700380025484790991e+01
2.000000000000000111e-01 -4.182055459364608652e+00
2.099999999999999922e-01 -6.194062691248660002e+01
2.200000000000000011e-01 -1.109911040845922372e+02
2.300000000000000100e-01 -1.471317039959380395e+02
2.399999999999999911e-01 -1.672245953501877693e+02
2.500000000000000000e-01 -1.699592956889450193e+02
2.600000000000000089e-01 -1.561965420680421914e+02
2.700000000000000178e-01 -1.280979110984424381e+02
2.800000000000000266e-01 -8.887933389698211784e+01
2.899999999999999800e-01 -4.280372768158726160e+01
2.999999999999999889e-01 5.159878422119769326e+00
3.099999999999999978e-01 5.014631812140179079e+01
3.200000000000000067e-01 8.795726845390294102e+01
3.300000000000000155e-01 1.154825283478245694e+02
3.400000000000000244e-01 1.305419872278653770e+02
3.499999999999999778e-01 1.321174080379079498e+02
3.599999999999999867e-01 1.209207400058411110e+02
3.699999999999999956e-01 9.865622852377273944e+01
3.800000000000000044e-01 6.790186020119141119e+01
3.900000000000000133e-01 3.194978366776082268e+01
4.000000000000000222e-01 -5.422665264031344634e+00
4.099999999999999756e-01 -4.049727627179198919e+01
4.199999999999999845e-01 -6.987025820148990363e+01
4.299999999999999933e-01 -9.093348612316725621e+01
4.400000000000000022e-01 -1.021984792053065121e+02
4.500000000000000111e-01 -1.029691529393150660e+02
4.600000000000000200e-01 -9.376603868459903879e+01
4.699999999999999734e-01 -7.598175624623132762e+01
4.799999999999999822e-01 -5.175629317839822363e+01
4.899999999999999911e-01 -2.366447497857058480e+01
5.000000000000000000e-01 5.498889201310047881e+00
5.100000000000000089e-01 3.274792131872509060e+01
5.200000000000000178e-01 5.558465214964164147e+01
5.300000000000000266e-01 7.191842071347203103e+01
5.400000000000000355e-01 8.027057979304622393e+01
5.500000000000000444e-01 8.054490948601518596e+01
5.600000000000000533e-01 7.310874109537843424e+01
5.699999999999999512e-01 5.880753785698752978e+01
5.799999999999999600e-01 3.962299777525710454e+01
5.899999999999999689e-01 1.754591548232598441e+01
5.999999999999999778e-01 -5.248541221380898847e+00
6.099999999999999867e-01 -2.651279958288941430e+01
6.199999999999999956e-01 -4.404575247877511401e+01
6.300000000000000044e-01 -5.635494999714288156e+01
6.400000000000000133e-01 -6.277042178622235014e+01
6.500000000000000222e-01 -6.291037888233107367e+01
6.600000000000000311e-01 -5.684860165045429881e+01
6.700000000000000400e-01 -4.556707682697406625e+01
6.800000000000000488e-01 -3.046126589829336595e+01
6.899999999999999467e-01 -1.302922258255505383e+01
6.999999999999999556e-01 4.851416453182755717e+00
7.099999999999999645e-01 2.146000412717000572e+01
7.199999999999999734e-01 3.505709425296461035e+01
7.299999999999999822e-01 4.462131461943913280e+01
7.399999999999999911e-01 4.958791256398003355e+01
7.500000000000000000e-01 4.949606108775265767e+01
7.600000000000000089e-01 4.459058639274113034e+01
7.700000000000000178e-01 3.553383001715232581e+01
7.800000000000000266e-01 2.334331438644362322e+01
7.900000000000000355e-01 9.352947435821965527e+00
8.000000000000000444e-01 -4.989882184371178475e+00
8.100000000000000533e-01 -1.804526480154818202e+01
8.199999999999999512e-01 -2.868682646536746716e+01
8.299999999999999600e-01 -3.622052746672341073e+01
8.399999999999999689e-01 -3.984783419102917890e+01
8.499999999999999778e-01 -3.943998697982741675e+01
8.599999999999999867e-01 -3.507859019506825859e+01
8.699999999999999956e-01 -2.755445874168925968e+01
8.800000000000000044e-01 -1.788893948063072870e+01
8.900000000000000133e-01 -6.642154788590454828e+00
9.000000000000000222e-01 4.719245877120501476e+00
9.100000000000000311e-01 1.502996399294968910e+01
9.200000000000000400e-01 2.336234462014783020e+01
9.300000000000000488e-01 2.901341699873711377e+01
9.399999999999999467e-01 3.164375293133341316e+01
9.499999999999999556e-01 3.112223046314598207e+01
9.599999999999999645e-01 2.755843893300659886e+01
9.699999999999999734e-01 2.144573635458202432e+01
9.799999999999999822e-01 1.361496041059572093e+01
9.899999999999999911e-01 4.962806107295703484e+00
1.000000000000000000e+00 -3.635197649779573048e+00
1.010000000000000009e+00 -1.149800144963723625e+01
1.020000000000000018e+00 -1.802264340700431688e+01
1.030000000000000027e+00 -2.253742564660424819e+01
1.040000000000000036e+00 -2.471257892615888352e+01
1.050000000000000044e+00 -2.434774115194159094e+01
1.060000000000000053e+00 -2.166743092576309948e+01
1.070000000000000062e+00 -1.705243819821870943e+01
1.080000000000000071e+00 -1.087760220298864411e+01
1.090000000000000080e+00 -4.003193351304098258e+00
1.100000000000000089e+00 2.836698867550908165e+00
1.110000000000000098e+00 9.096332880853275071e+00
1.120000000000000107e+00 1.425875661900810876e+01
1.129999999999999893e+00 1.787870458329659940e+01
1.139999999999999902e+00 1.969606851560867256e+01
1.149999999999999911e+00 1.936166535036333869e+01
1.159999999999999920e+00 1.696082525283098263e+01
1.169999999999999929e+00 1.325302628041027475e+01
1.179999999999999938e+00 8.445652209627063201e+00
1.189999999999999947e+00 2.822167893280679962e+00
1.199999999999999956e+00 -2.668725699611758984e+00
1.209999999999999964e+00 -7.643123182904170143e+00
1.219999999999999973e+00 -1.177424733363591436e+01
1.229999999999999982e+00 -1.451686089923819978e+01
1.239999999999999991e+00 -1.572789983959566662e+01
1.250000000000000000e+00 -1.542290500411895060e+01
1.260000000000000009e+00 -1.363747986924910016e+01
1.270000000000000018e+00 -1.067259555281064110e+01
1.280000000000000027e+00 -6.863069001135071900e+00
1.290000000000000036e+00 -2.512991558483870680e+00
1.300000000000000044e+00 1.877389788801350212e+00
1.310000000000000053e+00 5.810815031171170375e+00
1.320000000000000062e+00 9.034596563148340920e+00
1.330000000000000071e+00 1.129883119378448342e+01
1.340000000000000080e+00 1.238334494442997880e+01
1.350000000000000089e+00 1.219452169706327460e+01
1.360000000000000098e+00 1.097858720300090951e+01
1.370000000000000107e+00 8.849436996873432548e+00
1.379999999999999893e+00 6.050100995761689582e+00
1.389999999999999902e+00 2.738957209434216278e+00
1.399999999999999911e+00 -8.272748015364279617e-01
1.409999999999999920e+00 -4.201857159586187329e+00
1.419999999999999929e+00 -7.046652873223841596e+00
1.429999999999999938e+00 -8.961199576440943559e+00
1.439999999999999947e+00 -9.796595945805842476e+00
1.449999999999999956e+00 -9.666372914404501415e+00
1.459999999999999964e+00 -8.765446447962180088e+00
1.469999999999999973e+00 -7.165278585382993448e+00
1.479999999999999982e+00 -4.814107002697923576e+00
1.489999999999999991e+00 -2.046532488003692141e+00
1.500000000000000000e+00 6.871600461383927660e-01
1.510000000000000009e+00 3.362066979539535261e+00
1.520000000000000018e+00 5.626221469666782937e+00
1.530000000000000027e+00 6.991361235429619292e+00
1.540000000000000036e+00 7.624345989136823043e+00
1.550000000000000044e+00 7.692228303340691298e+00
1.560000000000000053e+00 7.013262789172063805e+00
1.570000000000000062e+00 5.675848353695329251e+00
1.580000000000000071e+00 3.966862488666479614e+00
1.590000000000000080e+00 1.860424781014581974e+00
1.600000000000000089e+00 -6.009776774829651558e-01
1.610000000000000098e+00 -2.836604539438247752e+00
1.620000000000000107e+00 -4.637763692768674062e+00
1.629999999999999893e+00 -5.942853363526854338e+00
1.639999999999999902e+00 -6.513756098290270913e+00
1.649999999999999911e+00 -6.474867727982041465e+00
1.659999999999999920e+00 -5.807701848400227185e+00
1.669999999999999929e+00 -4.679104659541465594e+00
1.679999999999999938e+00 -3.328810352935390959e+00
1.689999999999999947e+00 -1.555364670288138296e+00
1.699999999999999956e+00 3.887035975397594711e-01
1.709999999999999964e+00 2.173714247669483957e+00
1.719999999999999973e+00 3.465835752599649044e+00
1.729999999999999982e+00 4.378821911235833753e+00
1.739999999999999991e+00 5.016210531704395237e+00
1.750000000000000000e+00 5.033905975117196618e+00
1.760000000000000009e+00 4.558937560032751080e+00
1.770000000000000018e+00 3.749847952184839794e+00
1.780000000000000027e+00 2.387722391008967548e+00
1.790000000000000036e+00 8.833783260575627239e-01
1.800000000000000044e+00 -4.457159755465571749e-01
1.810000000000000053e+00 -1.688017013334571992e+00
1.820000000000000062e+00 -2.645357046662568212e+00
1.830000000000000071e+00 -3.280148289707704112e+00
1.840000000000000080e+00 -3.623327812494074873e+00
1.850000000000000089e+00 -3.615327788344976145e+00
1.860000000000000098e+00 -3.287281149548055392e+00
1.870000000000000107e+00 -2.576994152789117809e+00
1.879999999999999893e+00 -1.706326956037656828e+00
1.889999999999999902e+00 -7.767236038529790054e-01
1.899999999999999911e+00 1.255474494878625613e-01
1.909999999999999920e+00 9.094208660971707658e-01
1.919999999999999929e+00 1.751559248791478174e+00
1.929999999999999938e+00 2.259381706098373410e+00
1.939999999999999947e+00 2.412683286879411249e+00
1.949999999999999956e+00 2.533265983025366541e+00
1.959999999999999964e+00 2.519061939233778080e+00
1.969999999999999973e+00 2.295349776175244827e+00
1.979999999999999982e+00 1.849480632265439795e+00
1.989999999999999991e+00 1.137043227423633507e+00
2.000000000000000000e+00 3.942658227704138874e-01
2.009999999999999787e+00 -3.389754345989710593e-01
2.020000000000000018e+00 -9.859940182040658474e-01
2.029999999999999805e+00 -1.569826447744080200e+00
2.040000000000000036e+00 -1.973257783884546424e+00
2.049999999999999822e+00 -2.061413928715782440e+00
2.060000000000000053e+00 -1.893287807751746543e+00
2.069999999999999840e+00 -1.557127525723664530e+00
2.080000000000000071e+00 -1.083658275068005494e+00
2.089999999999999858e+00 -6.658618742592750106e-01
2.100000000000000089e+00 -3.151439244351048607e-01
2.109999999999999876e+00 1.201668382344303065e-01
2.120000000000000107e+00 5.389418088592798917e-01
2.129999999999999893e+00 7.947010820042652579e-01
2.140000000000000124e+00 1.023158818791736202e+00
2.149999999999999911e+00 1.091548442354644211e+00
2.160000000000000142e+00 1.032127239294023946e+00
2.169999999999999929e+00 9.617193839140097955e-01
2.180000000000000160e+00 9.125272979533003426e-01
2.189999999999999947e+00 7.035173998366507364e-01
2.200000000000000178e+00 3.599452714171311740e-01
2.209999999999999964e+00 -4.420218690857868893e-02
2.220000000000000195e+00 -4.464105135156652970e-01
2.229999999999999982e+00 -6.213970721058870161e-01
2.240000000000000213e+00 -8.468966467778181739e-01
2.250000000000000000e+00 -1.153908528746746764e+00
2.259999999999999787e+00 -1.235413712053822000e+00
2.270000000000000018e+00 -1.196348876984085319e+00
2.279999999999999805e+00 -1.132662650594392195e+00
2.290000000000000036e+00 -9.285874101888005328e-01
2.299999999999999822e+00 -5.606245881426499267e-01
2.310000000000000053e+00 -2.277428185392351701e-01
2.319999999999999840e+00 -5.583245337755782245e-03
2.330000000000000071e+00 4.041224711460906227e-01
2.339999999999999858e+00 8.557536466649531270e-01
2.350000000000000089e+00 1.108142490540904745e+00
2.359999999999999876e+00 1.327040556717317354e+00
2.370000000000000107e+00 1.338554944844294603e+00
2.379999999999999893e+00 1.261851877464964300e+00
2.390000000000000124e+00 1.076816901218261346e+00
2.399999999999999911e+00 8.143854582716674173e-01
2.410000000000000142e+00 4.995289769682051961e-01
2.419999999999999929e+00 1.756792248887313335e-01
2.430000000000000160e+00 -7.329369833289511860e-02
2.439999999999999947e+00 -3.177252117004980558e-01
2.450000000000000178e+00 -5.579583530256142510e-01
2.459999999999999964e+00 -7.146934166449918635e-01
2.470000000000000195e+00 -8.757221406659527752e-01
2.479999999999999982e+00 -9.549936083090799777e-01
2.490000000000000213e+00 -7.888494635467115934e-01
2.500000000000000000e+00 -6.813096353098431202e-01
2.509999999999999787e+00 -5.815384951165716299e-01
2.520000000000000018e+00 -4.417894082309885562e-01
2.529999999999999805e+00 -3.270381417837024962e-01
2.540000000000000036e+00 -1.122488824931373586e-01
2.549999999999999822e+00 2.604348017464794829e-01
2.560000000000000053e+00 4.783378892874976529e-01
2.569999999999999840e+00 7.088169985260921457e-01
2.580000000000000071e+00 7.301660427914220541e-01
2.589999999999999858e+00 5.999538411310714192e-01
2.600000000000000089e+00 4.461861124627144459e-01
2.609999999999999876e+00 2.297497668369029578e-01
2.620000000000000107e+00 1.575073697219846469e-01
2.629999999999999893e+00 -9.546891468806717462e-02
2.640000000000000124e+00 -2.379896753117658470e-01
2.649999999999999911e+00 -2.978303524132759339e-01
2.660000000000000142e+00 -4.887785671680673349e-01
2.669999999999999929e+00 -5.569609994167814548e-01
2.680000000000000160e+00 -5.986302330050297105e-01
2.689999999999999947e+00 -5.984297214123879272e-01
2.700000000000000178e+00 -3.742164204097087055e-01
2.709999999999999964e+00 -2.185265559485687348e-01
2.720000000000000195e+00 -7.775165457846777706e-02
2.729999999999999982e+00 1.352414835223567646e-01
2.740000000000000213e+00 2.398772693201361994e-01
2.750000000000000000e+00 1.927001598747768440e-01
2.759999999999999787e+00 3.429340837554972765e-03
2.770000000000000018e+00 1.850730001754263832e-02
2.779999999999999805e+00 1.284027131804250654e-01
2.790000000000000036e+00 2.746054623033309383e-01
2.799999999999999822e+00 4.706000614990356601e-01
2.810000000000000053e+00 6.256931932899419957e-01
2.819999999999999840e+00 7.147231236826776524e-01
2.830000000000000071e+00 8.146098003160795464e-01
2.839999999999999858e+00 6.538942247027142995e-01
2.850000000000000089e+00 3.642699826948786468e-01
2.859999999999999876e+00 2.722670697297944198e-01
2.870000000000000107e+00 6.109585871108391686e-02
2.879999999999999893e+00 -2.276168685120731894e-01
2.890000000000000124e+00 -4.519669679349260782e-01
2.899999999999999911e+00 -4.942158240052466622e-01
2.910000000000000142e+00 -5.771566717010614411e-01
2.919999999999999929e+00 -7.394151232961718723e-01
2.930000000000000160e+00 -6.292115301183152098e-01
2.939999999999999947e+00 -4.797716346384750530e-01
2.950000000000000178e+00 -4.247970659767434931e-01
2.959999999999999964e+00 -3.695842299336070669e-01
2.970000000000000195e+00 -2.304256436627278859e-01
2.979999999999999982e+00 -5.269687500837050287e-02
2.990000000000000213e+00 -5.505201314511154465e-03
3.000000000000000000e+00 -7.749082973995635726e-02
3.009999999999999787e+00 -9.484690329599176906e-02
3.020000000000000018e+00 -4.345984057762652952e-02
3.029999999999999805e+00 7.087451502971901796e-02
3.040000000000000036e+00 2.743465224041200523e-01
3.049999999999999822e+00 4.592400992218226286e-01
3.060000000000000053e+00 4.306738805784984248e-01
3.069999999999999840e+00 3.533560696919861854e-01
3.080000000000000071e+00 3.992989410572704845e-01
3.089999999999999858e+00 2.626382805334435133e-01
3.100000000000000089e+00 1.025565677983759638e-01
3.109999999999999876e+00 -3.079199927933817804e-03
3.120000000000000107e+00 -1.160054591019634707e-01
3.129999999999999893e+00 -3.678687104342308611e-01
3.140000000000000124e+00 -4.930792981539024455e-01
3.149999999999999911e+00 -4.456220954116090205e-01
3.160000000000000142e+00 -3.502209323324838586e-01
3.169999999999999929e+00 -3.027077323147073784e-01
3.180000000000000160e+00 -2.005141234618461610e-01
3.189999999999999947e+00 -9.896409728022409480e-02
3.200000000000000178e+00 -1.661661902078674369e-01
3.209999999999999964e+00 -2.029556431036511066e-01
3.220000000000000195e+00 -8.165030434614850563e-02
3.229999999999999982e+00 1.305266396224791237e-01
3.240000000000000213e+00 1.089999007517328256e-01
3.250000000000000000e+00 1.105271019283349254e-01
3.259999999999999787e+00 2.515543635091175290e-01
3.270000000000000018e+00 3.087331943421836034e-01
3.279999999999999805e+00 2.600260206081693726e-01
3.290000000000000036e+00 3.428255184569516389e-01
3.299999999999999822e+00 4.831381607217105634e-01
3.310000000000000053e+00 4.266811774615724695e-01
3.319999999999999840e+00 2.704396523394191343e-01
3.330000000000000071e+00 4.910199558933892039e-02
3.339999999999999858e+00 -1.249873613185962240e-01
3.350000000000000089e+00 -1.759884607749365726e-01
3.359999999999999876e+00 -1.142769906130488566e-01
3.370000000000000107e+00 -7.370756587757987255e-02
3.379999999999999893e+00 -2.128686681188447505e-01
3.390000000000000124e+00 -4.135194533371199244e-01
3.399999999999999911e+00 -6.135889026235272770e-01
3.410000000000000142e+00 -6.327780625895562672e-01
3.419999999999999929e+00 -3.707143703123078615e-01
3.430000000000000160e+00 -2.152325168109910924e-01
3.439999999999999947e+00 -1.666381036791559911e-01
3.450000000000000178e+00 3.415134995396507112e-02
3.459999999999999964e+00 2.173839512252697670e-01
3.470000000000000195e+00 3.896367812766619032e-01
3.479999999999999982e+00 5.446410474693141879e-01
3.490000000000000213e+00 6.624419958103862083e-01
3.500000000000000000e+00 6.822544439031272834e-01
3.509999999999999787e+00 5.703430531072908316e-01
3.520000000000000018e+00 4.595184481293626555e-01
3.529999999999999805e+00 2.898191242700668413e-01
3.540000000000000036e+00 1.298805191147780480e-01
3.549999999999999822e+00 -6.986611131577269429e-02
3.560000000000000053e+00 -3.771463313298182296e-01
3.569999999999999840e+00 -7.428386992741897732e-01
3.580000000000000071e+00 -1.140278529730685442e+00
3.589999999999999858e+00 -1.389906926012086874e+00
3.600000000000000089e+00 -1.496748170800906941e+00
3.609999999999999876e+00 -1.480824124509387163e+00
3.620000000000000107e+00 -1.344306146756043319e+00
3.629999999999999893e+00 -9.981012484469544699e-01
3.640000000000000124e+00 -6.102002964754551506e-01
3.649999999999999911e+00 -1.800443051721011822e-01
3.660000000000000142e+00 3.085233472787271558e-01
3.669999999999999929e+00 7.500948727733496302e-01
3.680000000000000160e+00 1.138483297064219135e+00
3.689999999999999947e+00 1.373468715959188513e+00
3.700000000000000178e+00 1.596165957632129873e+00
3.709999999999999964e+00 1.714507922248036165e+00
3.720000000000000195e+00 1.525291336663583852e+00
3.729999999999999982e+00 1.253408543934350083e+00
3.740000000000000213e+00 1.007281963977594730e+00
3.750000000000000000e+00 6.492228171072962351e-01
3.759999999999999787e+00 2.201311021192582373e-01
3.770000000000000018e+00 -1.699579178164503102e-01
3.779999999999999805e+00 -3.886517935915175248e-01
3.790000000000000036e+00 -6.446710792975955950e-01
3.799999999999999822e+00 -1.016442795168368329e+00
3.810000000000000053e+00 -1.346297774025763339e+00
3.819999999999999840e+00 -1.427856643550582616e+00
3.830000000000000071e+00 -1.315319979680990903e+00
3.839999999999999858e+00 -1.259927012942416269e+00
3.850000000000000089e+00 -9.642710079348355556e-01
3.859999999999999876e+00 -5.022795400593269566e-01
3.870000000000000107e+00 -1.156553103359680978e-01
3.879999999999999893e+00 2.357860634005271572e-01
3.890000000000000124e+00 5.467388500423864262e-01
3.899999999999999911e+00 9.279319031130934814e-01
3.910000000000000142e+00 1.356486241301126938e+00
3.919999999999999929e+00 1.657782294940691514e+00
3.930000000000000160e+00 1.688791939246444773e+00
3.939999999999999947e+00 1.566028170373792605e+00
